# PEs energy in eV
# 100
0,0
1.999999999999975131e-01,7.117578753770542783e-03
3.999999999999968026e-01,1.138131444290255145e-02
5.999999999999978684e-01,1.510969903349285159e-02
7.999999999999971578e-01,1.820302989757906220e-02
9.999999999999964473e-01,2.054316312091494789e-02
1.199999999999997513e+00,2.236078978817910776e-02
1.399999999999996803e+00,2.362383008834312986e-02
1.599999999999997868e+00,2.456322629401882021e-02
1.799999999999997158e+00,2.518788190452632761e-02
1.999999999999996447e+00,2.550212311748634164e-02
2.199999999999997513e+00,2.566031097827702057e-02
2.399999999999996803e+00,2.567977000583552064e-02
2.599999999999997868e+00,2.557472472851956072e-02
2.799999999999997158e+00,2.535707595342256981e-02
2.999999999999996447e+00,2.486307057922060304e-02
3.199999999999997513e+00,2.444459552204240188e-02
3.399999999999996803e+00,2.412292075309776726e-02
3.599999999999997868e+00,2.354330869861590708e-02
3.799999999999997158e+00,2.308086450150763011e-02
3.999999999999996447e+00,2.275202003201036785e-02
4.199999999999997513e+00,2.237362702059795400e-02
4.399999999999996803e+00,2.174766327866897025e-02
4.599999999999997868e+00,2.127668494338030153e-02
4.799999999999997158e+00,2.076545863280638421e-02
4.999999999999996447e+00,2.024105104796581830e-02
5.199999999999997513e+00,1.976172259251092467e-02
5.399999999999996803e+00,1.926150430373057415e-02
5.599999999999997868e+00,1.884981115459582329e-02
5.799999999999997158e+00,1.840425324270690555e-02
5.999999999999996447e+00,1.811260931165910304e-02
6.199999999999997513e+00,1.762629661960001676e-02
6.399999999999996803e+00,1.727062210573317505e-02
6.599999999999997868e+00,1.687082630307202083e-02
6.799999999999997158e+00,1.643870754337106374e-02
6.999999999999996447e+00,1.605915138138692966e-02
7.199999999999995737e+00,1.575296833595670604e-02
7.399999999999998579e+00,1.530591388549079092e-02
7.599999999999997868e+00,1.493682282083496488e-02
7.799999999999997158e+00,1.474766884218298504e-02
7.999999999999996447e+00,1.434868200837314742e-02
8.199999999999995737e+00,1.405989996658527780e-02
8.399999999999998579e+00,1.370550118393997450e-02
8.599999999999997868e+00,1.346717656710896480e-02
8.799999999999997158e+00,1.313407368195635729e-02
8.999999999999996447e+00,1.289026170178639470e-02
9.199999999999995737e+00,1.253246273063469106e-02
9.399999999999998579e+00,1.230646984394196536e-02
9.599999999999997868e+00,1.202437023020767534e-02
9.799999999999997158e+00,1.179294497990460849e-02
9.999999999999996447e+00,1.152142903924521962e-02
1.019999999999999574e+01,1.120101120271683841e-02
1.039999999999999858e+01,1.094908774036144374e-02
1.059999999999999787e+01,1.072364408259849147e-02
1.079999999999999716e+01,1.040078862215837799e-02
1.099999999999999645e+01,1.013390626278217778e-02
1.119999999999999574e+01,1.002687868898604305e-02
1.139999999999999858e+01,9.753134673647127773e-03
1.159999999999999787e+01,9.493147949317111423e-03
1.179999999999999716e+01,9.369858730665994728e-03
1.199999999999999645e+01,9.089655444839844084e-03
1.219999999999999574e+01,8.935294139251570220e-03
1.239999999999999858e+01,8.711174218609086042e-03
1.259999999999999787e+01,8.477792562303968632e-03
1.279999999999999716e+01,8.279504814149588054e-03
1.299999999999999645e+01,8.140521951381924151e-03
1.319999999999999574e+01,7.923147094827567849e-03
1.339999999999999858e+01,7.721998201708156137e-03
1.359999999999999787e+01,7.624739918797437607e-03
1.379999999999999716e+01,7.415220639534471532e-03
1.399999999999999645e+01,7.230996790024172768e-03
1.419999999999999574e+01,7.074990291616082595e-03
1.439999999999999858e+01,6.975531232999210296e-03
1.459999999999999787e+01,6.863892380718978822e-03
1.479999999999999716e+01,6.719035289296554532e-03
1.499999999999999645e+01,6.548399549802240080e-03
1.519999999999999574e+01,6.381591262268396930e-03
1.539999999999999858e+01,6.279676398502283784e-03
1.559999999999999787e+01,6.196306779277249883e-03
1.579999999999999716e+01,6.088019766851279595e-03
1.599999999999999645e+01,5.925149824128382939e-03
1.619999999999999574e+01,5.824176751010395718e-03
1.639999999999999858e+01,5.695626984919872730e-03
1.659999999999999787e+01,5.623575148399596879e-03
1.679999999999999716e+01,5.516725173489262987e-03
1.699999999999999645e+01,5.386669039601266890e-03
1.719999999999999574e+01,5.332591630169409951e-03
1.739999999999999858e+01,5.212880418901043658e-03
1.759999999999999787e+01,5.074867742917175961e-03
1.779999999999999716e+01,5.004997033626167567e-03
1.799999999999999645e+01,4.881864684859644338e-03
1.819999999999999574e+01,4.818754724058687752e-03
1.839999999999999858e+01,4.763497467271249688e-03
1.859999999999999787e+01,4.693319737807928951e-03
1.879999999999999716e+01,4.570946331756987543e-03
1.899999999999999645e+01,4.536555164401110188e-03
1.919999999999999574e+01,4.381829656892419211e-03
1.939999999999999858e+01,4.334393646298504051e-03
1.959999999999999787e+01,4.309605391226898306e-03
1.979999999999999716e+01,4.230024485867327037e-03
1.999999999999999645e+01,4.187886661873043391e-03
2.019999999999999574e+01,4.060026855558378049e-03
2.039999999999999858e+01,4.012486266682190224e-03
2.059999999999999787e+01,3.954489756164468114e-03
2.079999999999999716e+01,3.921643313815979977e-03
2.099999999999999645e+01,3.829126119036060059e-03
2.119999999999999574e+01,3.731163825972823138e-03
2.139999999999999858e+01,3.737791484203391648e-03
2.159999999999999787e+01,3.624368413555323874e-03
2.179999999999999716e+01,3.598398488653434171e-03
2.199999999999999645e+01,3.579164758471362236e-03
2.219999999999999574e+01,3.498188984377211420e-03
2.239999999999999858e+01,3.463290545319840444e-03
2.259999999999999787e+01,3.382152670514127109e-03
2.279999999999999716e+01,3.364138918137443701e-03
2.300000000000000000e+01,3.300651773145380982e-03
2.319999999999999574e+01,3.223069227268333774e-03
2.339999999999999858e+01,3.218119205738112932e-03
2.359999999999999432e+01,3.182979072056304343e-03
2.379999999999999716e+01,3.135501668328877223e-03
2.400000000000000000e+01,3.120193138175895043e-03
2.419999999999999574e+01,3.045441748974651256e-03
2.439999999999999858e+01,3.007861204739238278e-03
2.459999999999999432e+01,2.946338666249098161e-03
2.479999999999999716e+01,2.893965188313634296e-03
2.500000000000000000e+01,2.848320288849720723e-03
2.519999999999999574e+01,2.845227105994758629e-03
2.539999999999999858e+01,2.799456209162668602e-03
2.559999999999999432e+01,2.769365470235129675e-03
2.579999999999999716e+01,2.745358212328065112e-03
2.600000000000000000e+01,2.709698049652727210e-03
2.619999999999999574e+01,2.669218223794064988e-03
2.639999999999999858e+01,2.664302629222378965e-03
2.659999999999999432e+01,2.623592512206487839e-03
2.679999999999999716e+01,2.591759208630125665e-03
2.700000000000000000e+01,2.560246546240467318e-03
2.719999999999999574e+01,2.511516317580365313e-03
2.739999999999999858e+01,2.492638545170640981e-03
2.759999999999999432e+01,2.444906238972554147e-03
2.779999999999999716e+01,2.448340943703844908e-03
2.800000000000000000e+01,2.418416038520545749e-03
2.819999999999999574e+01,2.381181749866342207e-03
2.839999999999999858e+01,2.343127441800936950e-03
2.859999999999999432e+01,2.343289287926965826e-03
2.879999999999999716e+01,2.315106027552130651e-03
2.900000000000000000e+01,2.295384020314855406e-03
2.919999999999999574e+01,2.279113122729623919e-03
2.939999999999999858e+01,2.264389013754559022e-03
2.959999999999999432e+01,2.227004454075821958e-03
2.979999999999999716e+01,2.209933180376628427e-03
3.000000000000000000e+01,2.192895077731475163e-03
3.019999999999999574e+01,2.151684140686211007e-03
3.039999999999999858e+01,2.111812806398591803e-03
3.059999999999999432e+01,2.149821724235088678e-03
3.079999999999999716e+01,2.102726128260662582e-03
3.100000000000000000e+01,2.116831099948095814e-03
3.119999999999999574e+01,2.054609784008489416e-03
3.139999999999999858e+01,2.040460276821572626e-03
3.159999999999999432e+01,2.044807523298922472e-03
3.179999999999999716e+01,2.022185356942101438e-03
3.200000000000000000e+01,2.009329478841772459e-03
3.219999999999999574e+01,1.955092350871558225e-03
3.239999999999999858e+01,1.962438523701716484e-03
3.259999999999999432e+01,1.942033379124999100e-03
3.279999999999999716e+01,1.948147224143994931e-03
3.300000000000000000e+01,1.913857113607116481e-03
3.319999999999999574e+01,1.936353528385417700e-03
3.339999999999999858e+01,1.881981327888524727e-03
3.359999999999999432e+01,1.901691093420314945e-03
3.379999999999999716e+01,1.881448086744612553e-03
3.400000000000000000e+01,1.847680054966823176e-03
3.419999999999999574e+01,1.854448751997896539e-03
3.439999999999999858e+01,1.830736419669822456e-03
3.459999999999999432e+01,1.822111344866032606e-03
3.479999999999999716e+01,1.807696128309393621e-03
3.500000000000000000e+01,1.802958655508936098e-03
3.519999999999999574e+01,1.752999874219343711e-03
3.539999999999999858e+01,1.778556500382694411e-03
3.559999999999999432e+01,1.763868043719362582e-03
3.579999999999999716e+01,1.747546333521858780e-03
3.600000000000000000e+01,1.702599753381635892e-03
3.619999999999999574e+01,1.696045722010775577e-03
3.639999999999999858e+01,1.726323438147811095e-03
3.659999999999999432e+01,1.709342502455532022e-03
3.679999999999999716e+01,1.674309946169566651e-03
3.700000000000000000e+01,1.699653523131579910e-03
3.719999999999999574e+01,1.674894288878859541e-03
3.739999999999999858e+01,1.679057095405888126e-03
3.759999999999999432e+01,1.656197289285076674e-03
3.779999999999999716e+01,1.646171335247267322e-03
3.800000000000000000e+01,1.617027545628078574e-03
3.819999999999999574e+01,1.615407178657089467e-03
3.839999999999999858e+01,1.597264671864077976e-03
3.859999999999999432e+01,1.615574579730229146e-03
3.879999999999999716e+01,1.590693632754437833e-03
3.900000000000000000e+01,1.598662105432488954e-03
3.919999999999999574e+01,1.574440900927772139e-03
3.939999999999999858e+01,1.571373210778303272e-03
3.959999999999999432e+01,1.542047726393703383e-03
3.979999999999999716e+01,1.549907828714930337e-03
4.000000000000000000e+01,1.541867756817504433e-03
4.019999999999999574e+01,1.526465307663143079e-03
4.039999999999999858e+01,1.530975491486074452e-03
4.059999999999999432e+01,1.525963541417799454e-03
4.079999999999999716e+01,1.514228845295126271e-03
4.100000000000000000e+01,1.481124751047096372e-03
4.119999999999999574e+01,1.488339337647143950e-03
4.139999999999999858e+01,1.495646225889338266e-03
4.159999999999999432e+01,1.501815158972329102e-03
4.179999999999999716e+01,1.468458071146992987e-03
4.200000000000000000e+01,1.458668401888348542e-03
4.219999999999999574e+01,1.459654572091512300e-03
4.239999999999999858e+01,1.441064022688366957e-03
4.259999999999999432e+01,1.440644531925706646e-03
4.279999999999999716e+01,1.445447449940351565e-03
4.300000000000000000e+01,1.416453897060527449e-03
4.319999999999999574e+01,1.405407796388018259e-03
4.339999999999999858e+01,1.422299446260135315e-03
4.359999999999999432e+01,1.420863191276935987e-03
4.379999999999999716e+01,1.380261075022809827e-03
4.400000000000000000e+01,1.409268548545530375e-03
4.419999999999999574e+01,1.361169713569675751e-03
4.439999999999999858e+01,1.398067889400852895e-03
4.459999999999999432e+01,1.366516855752350837e-03
4.479999999999999716e+01,1.383623664407762589e-03
4.500000000000000000e+01,1.371981619531888012e-03
4.519999999999999574e+01,1.354515399155381420e-03
4.539999999999999858e+01,1.329287262638556262e-03
4.559999999999999432e+01,1.350822159818789283e-03
4.579999999999999716e+01,1.356098101873517243e-03
4.600000000000000000e+01,1.324506246370702302e-03
4.619999999999999574e+01,1.334247265514762948e-03
4.639999999999999858e+01,1.335650005252981718e-03
4.659999999999999432e+01,1.306649380134078083e-03
4.679999999999999716e+01,1.310122842857365001e-03
4.700000000000000000e+01,1.295438364274727021e-03
4.719999999999999574e+01,1.304921138100436804e-03
4.739999999999999858e+01,1.293079163122957996e-03
4.759999999999999432e+01,1.284892271468788139e-03
4.779999999999999716e+01,1.300927097541139344e-03
4.800000000000000000e+01,1.272099596324615181e-03
4.819999999999999574e+01,1.282873744247525934e-03
4.839999999999999858e+01,1.250608609294448720e-03
4.859999999999999432e+01,1.246363700088729942e-03
4.879999999999999716e+01,1.246595550908165739e-03
4.900000000000000000e+01,1.270927330553619670e-03
4.919999999999999574e+01,1.255661668771626332e-03
4.939999999999999858e+01,1.248202131353850445e-03
4.959999999999999432e+01,1.234378203516049450e-03
4.979999999999999716e+01,1.235126965218082996e-03
5.000000000000000000e+01,1.215786638518976358e-03
5.019999999999999574e+01,1.206838955539515576e-03
5.039999999999999858e+01,1.214747173637342748e-03
5.059999999999999432e+01,1.192130219924815351e-03
5.079999999999999716e+01,1.192182117092168174e-03
5.100000000000000000e+01,1.183208780600029540e-03
5.119999999999999574e+01,1.188174606789327292e-03
5.139999999999999858e+01,1.198519955670398389e-03
5.159999999999999432e+01,1.189770011097528212e-03
5.179999999999999716e+01,1.173068550664976275e-03
5.200000000000000000e+01,1.174983322935758100e-03
5.219999999999999574e+01,1.174207323793771771e-03
5.239999999999999858e+01,1.159429170122224916e-03
5.259999999999999432e+01,1.141833492237074102e-03
5.279999999999999716e+01,1.154973330600639206e-03
5.300000000000000000e+01,1.141718024703076506e-03
5.319999999999999574e+01,1.143386012420130170e-03
5.339999999999999858e+01,1.149490117570926492e-03
5.359999999999999432e+01,1.139708348956912538e-03
5.379999999999999716e+01,1.137410873889619896e-03
5.400000000000000000e+01,1.122345070486594929e-03
5.419999999999999574e+01,1.119146781720865239e-03
5.439999999999999858e+01,1.125357174857054407e-03
5.459999999999999432e+01,1.108812502757382636e-03
5.479999999999999716e+01,1.115522166076361949e-03
5.500000000000000000e+01,1.095284564694470409e-03
5.520000000000000284e+01,1.083171586690810911e-03
5.539999999999999147e+01,1.098242425229261233e-03
5.559999999999999432e+01,1.078478126418705918e-03
5.579999999999999716e+01,1.078067368049597137e-03
5.600000000000000000e+01,1.073475491318718949e-03
5.620000000000000284e+01,1.077996167692785992e-03
5.639999999999999147e+01,1.088278815578129152e-03
5.659999999999999432e+01,1.060254001197315525e-03
5.679999999999999716e+01,1.053467024875158996e-03
5.700000000000000000e+01,1.044818592442264826e-03
5.720000000000000284e+01,1.056296161857982934e-03
5.739999999999999147e+01,1.034581135989134579e-03
5.759999999999999432e+01,1.059625407933061049e-03
5.779999999999999716e+01,1.044415526540780521e-03
5.800000000000000000e+01,1.043138077134922459e-03
5.820000000000000284e+01,1.030983706488635245e-03
5.839999999999999147e+01,1.023761685473141341e-03
5.859999999999999432e+01,1.040313976356928641e-03
5.879999999999999716e+01,1.029489323914930870e-03
5.900000000000000000e+01,1.001812019641943165e-03
5.920000000000000284e+01,1.018730545407391585e-03
5.939999999999999147e+01,1.007560529203067228e-03
5.959999999999999432e+01,1.006403782317814161e-03
5.979999999999999716e+01,1.008716935689317040e-03
6.000000000000000000e+01,1.003534801907530766e-03
6.020000000000000284e+01,1.000508840316802466e-03
6.039999999999999147e+01,9.895452683399406403e-04
6.059999999999999432e+01,9.825767765371370890e-04
6.079999999999999716e+01,9.971942588920912169e-04
6.100000000000000000e+01,9.895227347628710469e-04
6.120000000000000284e+01,9.669920117224090278e-04
6.139999999999999147e+01,9.659514842352844065e-04
6.159999999999999432e+01,9.620385593971079747e-04
6.179999999999999716e+01,9.730104805010045006e-04
6.200000000000000000e+01,9.546650069448568482e-04
6.220000000000000284e+01,9.607232263820769539e-04
6.239999999999999147e+01,9.653262310246296229e-04
6.259999999999999432e+01,9.600704393124568975e-04
6.279999999999999716e+01,9.389564544889318545e-04
6.300000000000000000e+01,9.406976749329534889e-04
6.320000000000000284e+01,9.476588851872903146e-04
6.339999999999999147e+01,9.249055355537180809e-04
6.359999999999999432e+01,9.410323116728701960e-04
6.379999999999999716e+01,9.320784890948397450e-04
6.400000000000000000e+01,9.327638510277045519e-04
6.420000000000000284e+01,9.173182544767869481e-04
6.439999999999999147e+01,9.280148907679781596e-04
6.459999999999999432e+01,9.219041512936169318e-04
6.479999999999999716e+01,9.111563636272438640e-04
6.500000000000000000e+01,9.110132788822129096e-04
6.520000000000000284e+01,9.057195257909045555e-04
6.539999999999999147e+01,8.956824371938131284e-04
6.559999999999999432e+01,8.973059355928516070e-04
6.579999999999999716e+01,8.950992379674099948e-04
6.600000000000000000e+01,8.858933969497073809e-04
6.620000000000000284e+01,8.886078607270518322e-04
6.639999999999999147e+01,8.893226437847311528e-04
6.659999999999999432e+01,8.740634508459965051e-04
6.679999999999999716e+01,8.834211179237148577e-04
6.700000000000000000e+01,8.670089487402731420e-04
6.720000000000000284e+01,8.640006097443068793e-04
6.739999999999999147e+01,8.736728808255367828e-04
6.759999999999999432e+01,8.774449181717168360e-04
6.779999999999999716e+01,8.579340417694954982e-04
6.800000000000000000e+01,8.489982335438527733e-04
6.820000000000000284e+01,8.704224476903995450e-04
6.839999999999999147e+01,8.558985360233532097e-04
6.859999999999999432e+01,8.376463623435026918e-04
6.879999999999999716e+01,8.499123795178285985e-04
6.900000000000000000e+01,8.418745424636145521e-04
6.920000000000000284e+01,8.482421300775197471e-04
6.939999999999999147e+01,8.317458722537157071e-04
6.959999999999999432e+01,8.284967892368045629e-04
6.979999999999999716e+01,8.393456169969744753e-04
7.000000000000000000e+01,8.248972332705991261e-04
7.020000000000000284e+01,8.287578303107600956e-04
7.039999999999999147e+01,8.184298281818768849e-04
7.059999999999999432e+01,8.211636566607608944e-04
7.079999999999999716e+01,8.162220050646392657e-04
7.100000000000000000e+01,8.156553123535635694e-04
7.120000000000000284e+01,8.234380463158362702e-04
7.139999999999999147e+01,8.126987124092159738e-04
7.159999999999999432e+01,7.975672110183998050e-04
7.179999999999999716e+01,7.961591640307429324e-04
7.200000000000000000e+01,8.072338157308136001e-04
7.220000000000000284e+01,7.958964505038216772e-04
7.239999999999999147e+01,8.078902373470939289e-04
7.259999999999999432e+01,7.981486385592693068e-04
7.279999999999999716e+01,7.944877271706392123e-04
7.300000000000000000e+01,7.995295312462372085e-04
7.320000000000000284e+01,7.833186831251613344e-04
7.339999999999999147e+01,7.770328127326161073e-04
7.359999999999999432e+01,7.884040749354727937e-04
7.379999999999999716e+01,7.880134942333421374e-04
7.400000000000000000e+01,7.876938106016054871e-04
7.420000000000000284e+01,7.734811436701302797e-04
7.439999999999999147e+01,7.771870339635561812e-04
7.459999999999999432e+01,7.680263187498441143e-04
7.479999999999999716e+01,7.587156162642604094e-04
7.500000000000000000e+01,7.691500465787746033e-04
7.520000000000000284e+01,7.664077952206508129e-04
7.539999999999999147e+01,7.683884482640901837e-04
7.559999999999999432e+01,7.634801906048123985e-04
7.579999999999999716e+01,7.582136432239197513e-04
7.600000000000000000e+01,7.529781855847699499e-04
7.620000000000000284e+01,7.582495515549546056e-04
7.639999999999999147e+01,7.481701200278733158e-04
7.659999999999999432e+01,7.507240584609019491e-04
7.679999999999999716e+01,7.471317346090092021e-04
7.700000000000000000e+01,7.403123234499587885e-04
7.720000000000000284e+01,7.501215166528751822e-04
7.739999999999999147e+01,7.362365979094701203e-04
7.759999999999999432e+01,7.426088372711270660e-04
7.779999999999999716e+01,7.384698402611423020e-04
7.800000000000000000e+01,7.464250533084589891e-04
7.820000000000000284e+01,7.324298902338947839e-04
7.839999999999999147e+01,7.230471637066570537e-04
7.859999999999999432e+01,7.268658905897673389e-04
7.879999999999999716e+01,7.214148777277728164e-04
7.900000000000000000e+01,7.102715183056745873e-04
7.920000000000000284e+01,7.191817068240366354e-04
7.939999999999999147e+01,7.104667174056499522e-04
7.959999999999999432e+01,7.095205131949468757e-04
7.979999999999999716e+01,7.016369829963393315e-04
